CO127_LIGHT 2 3 4 5
angle 1.99 1.781 2.334 3.81
whole 295.762 295.047 295.784 294.326
RPEtoOLM 63.717 64.109 64.3 63.818
RNFL 33.525 31.809 33.518 33.156
-3.75 711.783 571.812 602.774 481.267
-2.5 933.935 879.429 810.876 677.251
-1.25 1507.8 1553.905 1409.797 1222.513
0 2183.704 2220.892 2103.239 1792.676
1.25 2802.19 2817.761 2687.863 2323.757
2.5 3268.662 3274.833 3054.647 2684.111
3.75 3511.842 3596.361 3225.98 2881.398
5 3656.701 3784.254 3327.811 3011.719
6.25 3658.019 3877.363 3390.094 3072.745
7.5 3571.283 3802.547 3331.145 3010.478
8.75 3337.686 3498.97 3115.71 2802.501
10 2909.663 3045.28 2698.715 2416.28
11.25 2614.159 2678.602 2389.315 2161.716
12.5 2418.127 2550.113 2226.091 2033.726
13.75 2335.898 2489.053 2180.933 1990.311
15 2313.995 2494.785 2169.368 1975.469
16.25 2304.08 2502.392 2175.469 1964.306
17.5 2309.08 2528.161 2175.934 1960
18.75 2327.864 2552.824 2193.752 1981.327
20 2359.283 2561.389 2224.514 2005.011
21.25 2375.817 2585.551 2241.375 2021.306
22.5 2373.168 2570.694 2242.481 2031.61
23.75 2374.672 2562.217 2233.755 2029.602
25 2373.838 2545.335 2234.545 2022.448
26.25 2387.95 2561.034 2246.848 2033.324
27.5 2405.027 2588.895 2257.754 2053.403
28.75 2433.83 2632.011 2271.922 2065.399
30 2450.952 2657.116 2294.95 2077.444
31.25 2456.17 2678.017 2321.211 2081.539
32.5 2462.866 2687.866 2323.527 2077.608
33.75 2452.765 2680.237 2318.887 2062.499
35 2398.324 2636.48 2268.182 2017.087
36.25 2295.353 2513.202 2162.967 1925.863
37.5 2136.024 2325.654 2023.756 1812.048
38.75 1991.522 2167.625 1871.701 1685.377
40 1896.734 2072.402 1779.965 1601.089
41.25 1848.151 2014.955 1742.788 1563.46
42.5 1831.562 2003.656 1732.098 1551.267
43.75 1834.255 2015.947 1736.861 1547.708
45 1852.143 2029.689 1748.138 1557.35
46.25 1884.871 2063.356 1783.832 1582.57
47.5 1943.372 2127.551 1836.556 1626.352
48.75 1996.878 2196.632 1885.759 1678.297
50 2066.816 2250.621 1945.453 1724.92
51.25 2151.743 2347.582 2020.588 1779.618
52.5 2197.939 2410.426 2048.592 1817.431
53.75 2174.331 2385.211 2030.628 1810.706
55 2100.41 2323.858 1970.517 1743.668
56.25 1981.484 2201.076 1856.922 1632.399
57.5 1830.624 2038.684 1713.545 1502.805
58.75 1701.759 1877.962 1573.24 1375.172
60 1610.537 1764.132 1494.228 1292.958
61.25 1563.099 1717.865 1446.23 1246.896
62.5 1529.688 1691.804 1411.35 1220.398
63.75 1486.729 1654.329 1387.342 1205.151
65 1460.569 1630.172 1376.472 1198.308
66.25 1458.953 1615.641 1373.441 1195.883
67.5 1454.842 1606.544 1369.516 1198.664
68.75 1442.599 1583.633 1359.037 1200.628
70 1421.918 1571.245 1351.701 1184.434
71.25 1399.215 1554.311 1340.238 1167.475
72.5 1385.339 1541.317 1323.208 1152.277
73.75 1397.495 1563.346 1320.184 1163.011
75 1490.273 1656.649 1391.069 1229.536
76.25 1652.98 1800.291 1557.872 1353.146
77.5 1703.959 1846.196 1632.659 1405.136
78.75 1631.708 1785.016 1565.281 1365.127
80 1578.033 1763.602 1483.582 1318.571
81.25 1736.411 1964.495 1558.238 1420.263
82.5 2292.772 2543.709 2040.114 1875.203
83.75 3165.477 3430.523 2888.978 2587.568
85 3951.659 4053.687 3713.525 3180.798
86.25 4254.314 4262.711 4093.288 3398.742
87.5 4025.816 3965.286 3932.169 3180.968
88.75 3477.102 3454.87 3399.679 2754.451
90 3073.584 3158.1 2921.709 2437.918
91.25 3149.987 3217.115 2921.409 2464.54
92.5 3383.693 3380.892 3206.171 2649.586
93.75 3609.023 3552.42 3456.098 2809.97
95 3754.379 3740.476 3615.157 2996.534
96.25 3876.556 4059.239 3713.779 3179.48
97.5 4055.37 4464.167 3864.548 3409.848
98.75 4266.397 4746.207 4065.061 3613.814
100 4373.328 4831.406 4128.51 3659.471
101.25 4287.876 4691.257 4038.229 3538.359
102.5 4033.838 4374.037 3839.695 3283.639
103.75 3615.596 3903.979 3473.157 2925.205
105 3254.967 3529.467 3092.064 2669.085
106.25 3108.894 3410.246 2937.738 2573.113
107.5 3053.775 3386.056 2914.249 2546.814
