AD433_LIGHT 2 3 4 5
angle -2.375 -1.621 -0.816 -1.984
whole 305.729 305.943 306.422 304.33
RPEtoOLM 70.411 70.037 69.603 69.908
RNFL 30.166 28.847 31.683 28.472
-3.75 501.923 563.297 538.611 552.574
-2.5 749.878 889.291 728.797 799.964
-1.25 1447.841 1621.179 1368.535 1535.687
0 2267.433 2461.299 2167.843 2404.157
1.25 2930.949 3181.142 2894.434 3148.028
2.5 3493.164 3753.364 3301.408 3698.701
3.75 3778.999 4134.337 3459.899 4035.159
5 3905.563 4276.136 3618.06 4231.199
6.25 3948.525 4272.307 3685.147 4295.746
7.5 3845.913 4137.177 3559.28 4200.709
8.75 3536.025 3804.301 3269.799 3818.516
10 3072.532 3247.039 2851.388 3279.116
11.25 2706.274 2849.358 2496.145 2903.216
12.5 2522.176 2672.345 2320.366 2714.873
13.75 2456.964 2641.243 2268.773 2654.948
15 2439.07 2637.664 2270.129 2638.293
16.25 2442.026 2630.41 2251.39 2623.363
17.5 2435.571 2616.384 2235.692 2605.658
18.75 2427.018 2591.152 2234.986 2588.657
20 2433.053 2577.077 2245.268 2589.009
21.25 2464.716 2583.376 2267.145 2602.813
22.5 2500.355 2613.332 2306.176 2647.887
23.75 2527.505 2657.164 2339.744 2676.171
25 2538.655 2699.358 2362.13 2725.437
26.25 2522.684 2701.586 2369.337 2745.393
27.5 2543.627 2692.982 2377.938 2744.882
28.75 2575.761 2719.884 2414.481 2753.775
30 2598.504 2751.082 2450.659 2785.718
31.25 2607.849 2757.155 2473.73 2812.409
32.5 2606.19 2747.872 2476.514 2831.67
33.75 2614.39 2734.202 2482.326 2824.156
35 2583.56 2679.016 2442.046 2761.787
36.25 2460.12 2564.225 2317.767 2635.236
37.5 2278.65 2395.13 2147.216 2443.891
38.75 2087.436 2204.367 1957.237 2235.907
40 1983.649 2080.296 1859.055 2116.264
41.25 1948.863 2023.279 1835.455 2069.205
42.5 1946.077 2018.884 1838.824 2067.611
43.75 1957.293 2030.255 1855.119 2070.576
45 1982.234 2059.353 1866.852 2089.62
46.25 2049.281 2119.339 1903.08 2158.813
47.5 2147.667 2188.932 1967.806 2236.202
48.75 2231.824 2267.305 2049.144 2322.692
50 2303.529 2353.12 2119.748 2397.772
51.25 2331.518 2398.098 2158.748 2447.772
52.5 2323.424 2398.595 2172.964 2480.594
53.75 2325.876 2406.669 2175.03 2505.001
55 2297.621 2372.631 2141.123 2472.08
56.25 2212.541 2267.831 2034.952 2361.482
57.5 2079.954 2139.285 1898.492 2228.168
58.75 1990.6 2030.67 1792.851 2130.877
60 1941.583 1962.148 1728.739 2048.7
61.25 1887.359 1908.074 1666.873 1990.466
62.5 1846.053 1870.802 1625.993 1940.809
63.75 1808.967 1838.857 1597.622 1903.529
65 1755.429 1789.881 1567.836 1850.24
66.25 1692.926 1739.984 1543.46 1781.379
67.5 1630.941 1676.505 1517.285 1707.611
68.75 1567.799 1611.309 1484.556 1635.499
70 1522.337 1558.642 1447.811 1600.9
71.25 1494.012 1513.768 1421.722 1579.354
72.5 1465.041 1488.716 1396.369 1548.355
73.75 1458.18 1471.946 1390.902 1535.727
75 1530.715 1527.905 1463.156 1598.036
76.25 1680.557 1698.234 1620.628 1764.176
77.5 1769.084 1796.482 1716.179 1850.462
78.75 1719.007 1740.969 1655.282 1805.252
80 1676.919 1674.638 1582.992 1789.875
81.25 1818.274 1834.212 1781.373 1946.257
82.5 2316.164 2404.736 2302.311 2481.952
83.75 3148.503 3269.417 3149.041 3340.29
85 3955.232 4073.091 3927.25 4197.942
86.25 4383.425 4451.649 4357.211 4595.218
87.5 4262.407 4301.771 4314.149 4367.156
88.75 3689.914 3764.871 3927.49 3764.473
90 3381.01 3356.783 3435.459 3484.167
91.25 3541.59 3585.249 3521.755 3709.566
92.5 3843.537 3984.127 3901.04 4069.074
93.75 3986.579 4181.096 4118.389 4178.677
95 3906.2 4131.077 4040.434 4104.597
96.25 3822.514 4058.616 3858.424 4041.879
97.5 3955.546 4130.492 3784.588 4206.241
98.75 4157.558 4245.218 3877.162 4392.519
100 4269.815 4300.373 3979.934 4449.254
101.25 4197.715 4169 3904.929 4286.08
102.5 3951.37 3876.8 3647.101 3945.735
103.75 3564.49 3484.184 3304.583 3485.485
105 3136.436 3068.635 2915.177 3019.415
106.25 2841.239 2762.765 2586.456 2753.047
107.5 2690.585 2591.128 2402.374 2625.307
