YA604_LIGHT 1 2 3 4 5 6 7 8 9 10 11 12 13 14 15
angle -2.519 -1.936 -0.631 -0.979 -0.411 -1.885 -0.691 -1.447 -0.953 -1.478 -1.15 -3.225 -1.808 -0.868 -1.464
whole 334.729 332.58 332.906 333.195 334.718 334.077 334.232 332.822 333.545 334.254 334.286 332.343 332.456 333.222 332.344
RPEtoOLM 72.071 71.638 71.76 71.537 71.262 71.982 71.462 71.079 71.586 71.557 71.815 71.425 71.715 71.013 71.343
RNFL 35.34 35.427 35.087 35.708 35.944 35.947 35.01 34.978 35.103 35.233 34.511 34.861 35.254 35.272 34.265
-3.75 980.651 1096.989 1182.402 909.398 863.15 1132.761 1260.3 1388.633 1198.226 1236.217 1386.442 1288.749 1243.862 1066.434 1272.8
-2.5 1146.9 1257.775 1374.985 1065.841 1068.037 1322.42 1545.432 1582.64 1425.761 1458.5 1642.699 1416.748 1401.148 1330.333 1409.497
-1.25 1537.106 1680.534 1830.581 1443.485 1514.728 1748.495 2105.427 2064.133 1923.763 1939.092 2179.497 1784.847 1809.376 1784.478 1760.693
0 2116.367 2311.661 2479.189 1999.334 2141.974 2364.612 2879.122 2777.467 2599.109 2628.6 2929.272 2357.082 2399.608 2434.268 2333.244
1.25 2658.873 2921.274 3057.748 2600.729 2813.389 3020.915 3650.261 3524.305 3326.178 3345.998 3686.609 2867.03 3001.564 3116.631 2894.044
2.5 2994.246 3249.466 3406.918 2955.764 3240.788 3387.152 4146.687 3913.802 3720.211 3780.824 4170.782 3150.739 3347.22 3517.947 3215.707
3.75 3125.233 3369.626 3480.935 3071.063 3390.163 3520.18 4383.718 4085.397 3931.065 3993.854 4440.257 3265.01 3491.808 3719.277 3376.13
5 3112.94 3366.17 3457.097 3086.958 3426.504 3573.719 4481.567 4132.691 4016.29 4069.585 4502.433 3331.182 3554.345 3822.158 3427.261
6.25 3063.345 3306.772 3400.714 3012.862 3369.224 3564.795 4489.282 4102.829 4020.177 4073.704 4498.771 3323.518 3548.302 3819.822 3397.91
7.5 2958.186 3218.43 3290.542 2898.9 3234.733 3439.504 4333.529 3951.929 3875.283 3940.926 4350.349 3218.226 3437.897 3687.334 3265.749
8.75 2766.136 2996.308 3051.137 2692.16 3015.38 3196.05 3995.856 3647.467 3613.402 3650.214 4011.994 2997.99 3164.419 3376.309 3037.673
10 2451.745 2631.826 2678.845 2368.409 2647.398 2829.602 3488.54 3221.002 3173.977 3214.609 3534.199 2683.497 2821.159 3022.659 2712.575
11.25 2167.965 2302.751 2358.581 2076.358 2320.63 2495.506 3104.261 2881.007 2820.1 2859.209 3148.586 2420.054 2504.678 2666.006 2430.332
12.5 2033 2167.91 2198.659 1952.176 2149.308 2357.207 2911.187 2720.957 2662.819 2695.139 2965.899 2297.888 2361.358 2510.463 2302.785
13.75 1989.583 2127.671 2138.892 1909.042 2097.433 2319.77 2848.159 2663.07 2600.348 2637.775 2902.278 2252.324 2318.374 2452.668 2236.338
15 1969.813 2124.892 2122.821 1899.555 2082.138 2306.175 2831.573 2639.093 2576.214 2623.148 2879.915 2231.416 2306.257 2417.9 2213.733
16.25 1971.584 2125.17 2124.434 1893.225 2073.544 2301.418 2827.384 2620.064 2552.377 2621.104 2876.24 2219.432 2294.247 2412.577 2214.722
17.5 1975.896 2128.106 2125.551 1893.05 2068.559 2306.676 2825.877 2613.525 2548.138 2624.919 2878.648 2221.782 2280.614 2408.727 2224.937
18.75 1975.795 2139.374 2136.56 1896.305 2081.38 2308.779 2820.991 2624.04 2557.653 2624.331 2881.995 2224.096 2285.747 2420.063 2228.797
20 1980.449 2134.894 2155.971 1904.125 2093.443 2322.397 2830.784 2659.338 2570.287 2621.033 2897.401 2229.532 2300.156 2446.802 2230.549
21.25 1985.796 2134.993 2167.936 1913.566 2105.694 2337.788 2836.599 2662.959 2581.617 2629.033 2914.133 2243.625 2302.499 2455.229 2243.571
22.5 1994.158 2138.96 2166.398 1920.647 2107.325 2350.32 2845.209 2655.191 2589.508 2642.823 2934.91 2253.879 2300.971 2449.655 2260.63
23.75 1999.341 2143.826 2172.858 1936.604 2106.572 2366.946 2852.353 2665.149 2605.153 2661.626 2953.15 2276.136 2315.283 2447.109 2272.359
25 2013.538 2174.334 2193.237 1947.766 2135.511 2402.488 2897.435 2705.6 2633.854 2686.461 2982.495 2310.837 2344.884 2467.745 2303.647
26.25 2046.688 2211.014 2238.489 1965.959 2172.162 2431.916 2955.822 2762.118 2658.953 2712.242 3015.638 2327.294 2372.14 2498.109 2324.413
27.5 2046.989 2213.734 2242.263 1972.945 2172.755 2419.977 2955.428 2765.266 2657.259 2701.931 3008.07 2310.733 2380.517 2488.862 2315.078
28.75 2027.616 2195.017 2229.477 1964.83 2157.794 2400.405 2918.985 2736.391 2636.656 2690.602 2993.776 2301.917 2365.719 2466.908 2306.931
30 2055.373 2207.848 2240.694 1977.002 2169.408 2424.913 2947.019 2750.319 2651.238 2721.303 3039.354 2327.011 2385.179 2494.33 2326.754
31.25 2076.43 2225.841 2251.036 1992.446 2191.06 2444.957 2976.927 2777.815 2685.926 2755.963 3085.146 2336.96 2405.526 2504.845 2350.089
32.5 2074.074 2207.074 2240.31 1992.33 2186.591 2437.94 2953.114 2781.437 2689.9 2748.141 3086.074 2324.335 2382.608 2493.037 2350.001
33.75 2067.874 2208.863 2243.787 1999.927 2190.498 2440.664 2927.034 2768.488 2685.638 2747.822 3052.623 2321.956 2368.562 2487.388 2356.593
35 2053.592 2211.695 2229.113 1989.38 2175.366 2420.249 2901.877 2744.374 2664.056 2725.398 3004.345 2301.746 2348.456 2466.731 2332.672
36.25 1953.827 2104.472 2117.577 1894.749 2071.066 2303.795 2767.065 2614.232 2526.2 2590.454 2858.735 2203.838 2235.126 2343.7 2216.259
37.5 1794.374 1927.156 1944.754 1741.181 1892.835 2118.896 2529.429 2402.697 2329.339 2382.775 2631.742 2037.274 2065.087 2163.179 2041.954
38.75 1656.627 1780.207 1795.735 1607.043 1743.772 1962.291 2333.863 2218.886 2150.62 2199.3 2438.749 1884.688 1921.018 2020.004 1891.163
40 1571.466 1691.413 1711.747 1526.945 1654.926 1869.002 2220.631 2111.736 2028.625 2079.874 2318.286 1794.411 1822.163 1921.12 1808.342
41.25 1532.254 1645.658 1670.537 1488.044 1615.072 1817.862 2167.673 2050.886 1977.135 2031.187 2253.212 1749.859 1763.724 1865.389 1748.896
42.5 1523.647 1643.319 1654.502 1469.169 1608.791 1809.552 2158.725 2033.134 1971.375 2019.721 2241.179 1733.952 1762.826 1850.716 1727.339
43.75 1519.4 1648.73 1653.583 1463.42 1609.563 1817.417 2161.211 2044.476 1976.954 2025.446 2240.754 1739.881 1777.472 1850.03 1736.27
45 1544.7 1652.737 1667.392 1475.911 1610.214 1828.655 2184.405 2075.549 1985.603 2033.505 2268.438 1766.316 1791.586 1868.032 1759.685
46.25 1605.784 1707.531 1718.579 1515.948 1635.364 1872.126 2237.35 2141.556 2040.427 2086.541 2330.793 1824.418 1841.186 1943.593 1803.194
47.5 1696.436 1795.602 1803.653 1587.818 1705.16 1974.875 2342.075 2251.342 2141.713 2189.756 2446.061 1909.931 1938.595 2059.51 1897.675
48.75 1777.609 1877.233 1879.476 1669.263 1798.411 2069.843 2450.241 2353.659 2239.368 2302.713 2576.73 1986.004 2029.924 2146.577 2002.734
50 1812.59 1933.226 1938.946 1733.993 1868.322 2132.26 2517.767 2393.281 2307.918 2357.536 2658.836 2037.747 2065.673 2196.357 2062.767
51.25 1835.923 1954.607 1977.928 1771.151 1906.957 2172.357 2555.824 2423.944 2337.065 2385.806 2698.358 2059.459 2089.942 2239.827 2080.658
52.5 1857.105 1967.37 1989.397 1794.965 1930.225 2192.436 2558.401 2457.332 2353.536 2404.429 2711.988 2100.257 2123.943 2255.787 2096.342
53.75 1874.616 1994.952 1975.264 1803.948 1924.31 2213.983 2563.279 2493.369 2371.126 2422.05 2715.936 2158.874 2142.5 2246.854 2126.703
55 1860.025 1978.987 1948.964 1765.574 1883.871 2176.241 2517.602 2459.198 2328.67 2403.01 2682.494 2172.518 2127.186 2224.926 2113.473
56.25 1791.935 1899.113 1865.669 1696.938 1795.962 2076.304 2378.935 2343.432 2208.165 2289.858 2579.834 2105.173 2038.616 2130.485 2024.341
57.5 1696.137 1792.259 1736.997 1608.048 1665.115 1953.862 2227.157 2213.688 2092.588 2151.639 2434.998 1981.988 1912.611 1999.908 1890.852
58.75 1606.983 1701.459 1635.703 1518.962 1572.479 1861.429 2087.277 2094.417 1989.896 2047.409 2325.609 1903.225 1814.681 1887.897 1797.413
60 1538.349 1616.624 1563.102 1447.147 1496.468 1784.128 1992.489 1996.966 1891.36 1957.24 2221.241 1833.439 1741.906 1802.923 1724.253
61.25 1479.892 1556.714 1507.237 1405.423 1437.806 1717.697 1921.837 1922.826 1823.972 1887.092 2124.978 1767.676 1673.342 1728.949 1657.684
62.5 1427.986 1499.796 1454.837 1359.265 1383.78 1661.459 1851.617 1855.005 1759.73 1817.103 2050.931 1706.481 1611.764 1670.238 1597.079
63.75 1365.564 1437.366 1407.302 1305.94 1341.972 1608.129 1787.344 1777.486 1703.244 1757.112 1964.189 1635.178 1557.806 1618.945 1542.486
65 1301.986 1377.328 1350.305 1245.038 1297.287 1541.58 1738.033 1700.569 1632.433 1695.286 1885.406 1558.451 1497.688 1565.696 1484.794
66.25 1252.897 1323.179 1300.248 1194.292 1264.89 1482.856 1693.545 1640.123 1570.737 1629.623 1828.277 1486.484 1436.435 1505.841 1428.295
67.5 1208.723 1286.713 1269.362 1156.739 1237.399 1429.326 1658.504 1605.835 1521.272 1579.797 1785.348 1402.491 1383.784 1464.07 1377.619
68.75 1171.624 1246.652 1253.21 1122.457 1205.132 1388.553 1626.614 1578.868 1490.77 1546.461 1735.479 1340.609 1347.19 1419.677 1341.408
70 1150.782 1226.025 1240.245 1098.361 1189.453 1363.493 1595.903 1553.893 1470.335 1525.563 1701.67 1313.518 1325.016 1399.646 1314.085
71.25 1134.69 1214.685 1239.206 1088.619 1178.112 1345.369 1581.933 1538.522 1453.216 1515.142 1679.468 1299.99 1309.048 1382.527 1295.19
72.5 1128.875 1203.037 1227.194 1083.824 1168.845 1329.12 1572.161 1523.9 1444.064 1496.698 1665.203 1287.47 1301.062 1365.809 1298.162
73.75 1132.274 1207.67 1225.486 1092.991 1171.968 1334.06 1565.69 1528.875 1447.314 1502.445 1674.561 1287.894 1302.475 1371.003 1306.366
75 1201.129 1270.259 1300.771 1142.038 1248.615 1406.864 1637.507 1600.645 1510.502 1560.179 1734.101 1345.909 1371.245 1450.64 1349.339
76.25 1323.324 1397.373 1491.451 1269.834 1414.119 1548.254 1806.136 1742.794 1655.761 1699.208 1886.955 1453.818 1496.284 1579.27 1481.579
77.5 1369.231 1451.669 1607.855 1324.224 1483.592 1609.632 1894.045 1812.852 1729.014 1766.279 1962.517 1505.404 1559.195 1642.556 1562.052
78.75 1318.064 1396.439 1523.281 1273.787 1416.495 1554.895 1822.895 1755.311 1670.425 1705.083 1900.164 1471.33 1510.243 1593.262 1516.776
80 1251.277 1339.612 1394.043 1209.802 1321.396 1493.004 1726.732 1678.058 1585.508 1628.162 1822.86 1415.507 1448.52 1516.762 1444.878
81.25 1331.063 1431.461 1458.751 1304.92 1402.262 1589.521 1842.545 1782.79 1707.007 1705.135 1947.684 1499.549 1568.61 1605.306 1518.356
82.5 1810.157 1977.804 2013.494 1806.41 1969.429 2210.348 2553.572 2397.427 2340.959 2302.934 2647.497 2016.86 2155.365 2250.26 2072.365
83.75 2573.736 2850.554 2963.944 2648.422 2870.98 3152.806 3803.067 3419.653 3298.684 3353.777 3735.915 2829.609 3078.885 3245.942 2957.444
85 3184.516 3512.327 3803.286 3290.113 3705.855 3904.467 4802.418 4274.688 4110.164 4186.431 4645.785 3426.406 3756.079 4007.858 3725.086
86.25 3224.556 3577.876 4070.15 3380.1 3925.535 4005.092 4977.652 4455.123 4219.446 4309.651 4792.017 3440.522 3805.375 4088.597 3870.321
87.5 2739.622 3075.216 3632.37 2911.353 3460.174 3433.195 4313.431 3883.473 3681.537 3747.091 4181.925 2913.617 3264.641 3538.27 3374.577
88.75 2223.166 2446.847 2861.982 2319.349 2743.428 2724.633 3458.174 3130.155 2936.082 2995.754 3319.639 2350.186 2636.377 2846.828 2676.138
90 2140.876 2349.886 2576.692 2155.468 2490.842 2564.746 3226.499 2900.379 2784.073 2800.778 3110.376 2222.128 2494.829 2657.35 2453.908
91.25 2350.674 2597.119 2880.631 2429.32 2805.138 2854.009 3591.17 3157.905 3019.117 3047.549 3361.946 2370.984 2745.778 2904.307 2674.344
92.5 2628.265 2872.527 3335.907 2733.957 3252.209 3221.583 4126.801 3501.514 3394.033 3396.533 3727.539 2586.129 3070.684 3273.473 3045.802
93.75 2817.826 3076.319 3574.467 2892.246 3495.693 3434.083 4389.225 3726.687 3635.253 3612.834 3981.079 2844.731 3250.078 3479.51 3311.386
95 2849.822 3129.42 3443.696 2852.35 3392.84 3424.984 4268.733 3824.348 3667.289 3679.108 4081.26 3069.964 3269.892 3456.834 3333.022
96.25 2890.597 3107.953 3222.233 2811.056 3171.678 3431.562 4087.017 3853.688 3701.993 3758.917 4207.166 3246.175 3353.059 3480.424 3303.985
97.5 3102.709 3281.757 3254.91 2945.577 3201.978 3637.148 4219.597 4033.864 3891.767 3964.44 4522.446 3493.071 3604.383 3690.541 3503.676
98.75 3297.98 3507.987 3454.124 3128.843 3387.346 3895.428 4515.469 4310.937 4135.156 4224.436 4773.57 3704.514 3828.023 3937.153 3741.03
100 3373.713 3574.784 3583.035 3196.585 3466.479 3983.097 4673.455 4452.907 4204.468 4302.689 4846.05 3753.061 3885.805 4047.769 3841.517
101.25 3292.925 3489.717 3567.665 3122.076 3417.061 3891.357 4574.382 4367.02 4089.3 4194.682 4760.116 3659.741 3773.861 3952.252 3770.248
102.5 3116.815 3291.302 3451.864 2988.451 3271.214 3694.477 4288.858 4122.033 3865.6 3971.659 4519.264 3452.357 3580.117 3755.126 3600.129
103.75 2867.177 2988.662 3205.855 2758.95 3004.424 3406.6 3877.172 3746.315 3510.833 3614.789 4103.381 3125.21 3290.092 3427.919 3329.209
105 2618.044 2674.405 2882.071 2497.568 2691.579 3129.582 3447.341 3359.278 3146.121 3242.507 3664.628 2816.465 2993.288 3084.121 3047.201
106.25 2419.879 2455.212 2630.836 2315.625 2458.796 2911.655 3145.816 3079.246 2874.611 2973.956 3367.338 2603.001 2764.54 2852.613 2825.828
107.5 2254.11 2278.861 2435.882 2158.632 2288.615 2717.425 2910.87 2843.273 2650.702 2743.741 3113.397 2405.143 2571.384 2659.025 2657.857
