CO928_DARK 1 2 3 5
angle -2.447 -1.908 0.075 -1.751
whole 317.909 318.409 317.349 315.821
RPEtoOLM 70.765 70.716 70.518 69.357
RNFL 33.783 34.288 33.767 33.983
-3.75 422.164 330.956 551.386 487.58
-2.5 610.452 534.313 975.119 769.5
-1.25 1039.085 1084.45 1547.559 1252.541
0 1488.273 1659.698 2198.7 1810.59
1.25 1962.01 2268.02 2900.091 2403.747
2.5 2299.608 2725.171 3411.684 2823.883
3.75 2448.55 2935.903 3678.059 2963.11
5 2509.046 3017.764 3784.633 3043.546
6.25 2541.181 3053.306 3827.83 3109.517
7.5 2502.32 3014.111 3769.897 3100.648
8.75 2356.738 2827.708 3490.793 2923.381
10 2070.757 2457.959 2969.439 2529.62
11.25 1858.39 2196.643 2618.784 2254.649
12.5 1770.104 2078.565 2473.032 2130.623
13.75 1752.887 2046.678 2428.218 2099.113
15 1744.428 2032.206 2408.267 2086.134
16.25 1743.235 2034.08 2414.064 2097.961
17.5 1752.701 2038.032 2411.886 2116.021
18.75 1765.8 2044.31 2417.953 2120.084
20 1758.646 2055.551 2410.452 2126.781
21.25 1743.436 2058.231 2401.341 2140.3
22.5 1759.23 2056.553 2415.968 2162.233
23.75 1792.579 2067.301 2454.083 2184.76
25 1822.743 2083.684 2493.141 2193.037
26.25 1852.266 2099.382 2515.58 2212.489
27.5 1875.525 2120.233 2525.202 2244.799
28.75 1887.498 2143.478 2531.075 2273.311
30 1890.015 2159.744 2551.765 2304.889
31.25 1892.576 2179.214 2558.55 2324.334
32.5 1903.852 2177.155 2557.085 2326.453
33.75 1906.879 2189.928 2560.197 2329.816
35 1874.688 2164.87 2529.131 2305.314
36.25 1790.965 2055.814 2406.789 2209.384
37.5 1676.097 1911.541 2233.622 2060.429
38.75 1553.511 1768.384 2081.895 1888.339
40 1488.154 1691.261 1983.606 1791.01
41.25 1464.151 1663.625 1941.85 1765.003
42.5 1466.931 1658.931 1933.574 1764.273
43.75 1474.33 1655.708 1942.311 1779.651
45 1494.518 1669.37 1955.238 1806.465
46.25 1545.084 1725.826 1995.992 1854.242
47.5 1626.433 1814.288 2067.71 1939.715
48.75 1708.667 1918.529 2153.208 2040.952
50 1780.546 2015.88 2260.194 2142.986
51.25 1806.82 2041.804 2345.095 2185.504
52.5 1815.864 2031.561 2348.739 2174.982
53.75 1834.005 2019.559 2295.037 2168.819
55 1800.893 1978.031 2216.781 2128.758
56.25 1693.893 1870.141 2072.005 2013.127
57.5 1582.188 1735.934 1914.524 1862.239
58.75 1507.047 1649.422 1801.225 1775.569
60 1437.963 1578.413 1716.918 1708.97
61.25 1376.897 1526.764 1662.337 1645.556
62.5 1337.493 1482.646 1623.86 1600.222
63.75 1317.586 1436.954 1589.532 1556.721
65 1304.683 1405.437 1570.089 1531.764
66.25 1276.471 1387.382 1566.772 1514.356
67.5 1241.38 1374.521 1560.784 1481.933
68.75 1219.622 1347.111 1547.139 1455.678
70 1203.707 1328.192 1531.109 1437.933
71.25 1190.852 1315.508 1517.523 1420.159
72.5 1183.333 1307.844 1511.674 1412.261
73.75 1197.998 1320.046 1524.658 1423.484
75 1287.65 1409.816 1606.477 1519.911
76.25 1423.447 1573.879 1819.024 1697.659
77.5 1486.056 1649.165 1907.343 1783.012
78.75 1427.72 1578.489 1821.099 1721.642
80 1331.468 1478.086 1689.396 1606.122
81.25 1389.862 1578.671 1760.618 1671.193
82.5 1873.78 2187.877 2429.273 2271.961
83.75 2622.555 3077.602 3429.039 3282.997
85 3149.444 3708.991 4167.41 4061.971
86.25 3186.162 3709.29 4230.697 4211.978
87.5 2776.815 3171.199 3663.392 3686.049
88.75 2293.062 2582.245 3003.091 2921.882
90 2138.404 2442.987 2799.354 2637.485
91.25 2283.331 2711.107 2999.618 2846.455
92.5 2542.349 3105.113 3378.899 3248.61
93.75 2807.775 3415.006 3761.526 3663.729
95 3017.626 3538.154 4028.894 3872.883
96.25 3123.768 3555.566 4165.398 3917.834
97.5 3244.268 3651.237 4222.219 3935.617
98.75 3411.62 3872.977 4401.414 4071.511
100 3483.993 3998.162 4522.194 4188.263
101.25 3348.243 3901.672 4398.136 4098.773
102.5 3008.191 3592.112 4013.793 3775.682
103.75 2561.309 3129.386 3424.423 3227.307
105 2193.576 2704.597 2870.398 2664.129
106.25 2015.743 2482.009 2592.966 2361.245
107.5 1933.343 2369.175 2473.842 2256.015
