CO638_LIGHT 1 3 4 5
angle -3.041 -2.446 -1.526 -2.975
whole 306.893 308.965 305.861 307.893
RPEtoOLM 65.53 65.935 65.594 65.522
RNFL 33.781 34.998 34.359 33.366
-3.75 509.249 421.612 448.988 470.369
-2.5 790.979 749.695 673.531 783.913
-1.25 1398.594 1373.853 1309.478 1392.039
0 2071.057 2067.954 1949.29 2022.706
1.25 2792.899 2841.502 2672.88 2723.983
2.5 3310.393 3384.076 3238.318 3251.759
3.75 3606.068 3621.125 3519.592 3529.648
5 3759.208 3737.062 3639.43 3667.715
6.25 3779.709 3755.446 3663.091 3709.839
7.5 3724.607 3701.579 3581.676 3598.665
8.75 3511.038 3451.02 3345.977 3379.129
10 3098.293 3017.057 2949.22 2986.51
11.25 2776.534 2700.537 2630.929 2665.728
12.5 2618.508 2550.322 2481.552 2513.03
13.75 2571.442 2486.61 2432.425 2473.167
15 2537.2 2456.602 2401.923 2468.275
16.25 2508.712 2439.823 2370.584 2456.988
17.5 2503.743 2435.962 2351.406 2441.472
18.75 2495.067 2430.255 2343.285 2437.78
20 2494.521 2426.117 2343.848 2421.52
21.25 2490.156 2435.431 2331.276 2397.852
22.5 2486.312 2441.164 2347.659 2380.059
23.75 2507.291 2446.339 2374.349 2390.994
25 2519.629 2471.485 2398.667 2433.151
26.25 2549.179 2514.056 2419.094 2476.212
27.5 2590.227 2546.035 2456.012 2492.699
28.75 2655.432 2570.401 2481.76 2531.186
30 2711.959 2593.345 2485.164 2571.214
31.25 2730.061 2612.719 2496.549 2604.885
32.5 2706.313 2613.411 2505.136 2599.07
33.75 2674.505 2594.15 2484.743 2567.228
35 2635.741 2547.643 2452.484 2517.701
36.25 2520.525 2448.206 2366.982 2406.245
37.5 2389.176 2300.557 2233.353 2271.213
38.75 2255.839 2164.157 2101.597 2152.808
40 2152.096 2063.14 1994.991 2050.554
41.25 2082.609 2000.09 1935.764 1981.571
42.5 2024.91 1967.619 1908.213 1954.514
43.75 2001.574 1942.842 1883.342 1946.798
45 2023.371 1945.818 1876.774 1974.234
46.25 2103.405 1998.204 1918.498 2047.256
47.5 2197.32 2087.075 1992.938 2129.583
48.75 2285.498 2173.489 2099.234 2194.027
50 2364.483 2246.903 2182.735 2248.068
51.25 2416.014 2306.833 2229.718 2308.175
52.5 2458.103 2353.316 2254.85 2367.808
53.75 2520.38 2371.283 2287.278 2402.929
55 2517.467 2326.908 2277.233 2364.838
56.25 2448.351 2223.016 2193.525 2283.183
57.5 2333.669 2117.714 2067.305 2182.191
58.75 2244.822 2041.459 1944.292 2097.399
60 2198.4 1985.739 1876.863 2033.226
61.25 2172.202 1932.458 1831.832 1997.299
62.5 2112.213 1877.18 1823.208 1968.982
63.75 2078.976 1828.992 1785.768 1932.349
65 2060.258 1780.687 1737.265 1883.367
66.25 2003.205 1744.992 1697.483 1819.128
67.5 1911.453 1712.583 1638.529 1762.701
68.75 1835.013 1657.08 1579.533 1697.793
70 1733.932 1586.841 1506.911 1611.617
71.25 1627.759 1525.052 1457.307 1540.604
72.5 1584.841 1495.736 1428.569 1514.872
73.75 1606.561 1529.96 1454.085 1547.78
75 1724.584 1648.859 1540.933 1649.7
76.25 1898.232 1826.653 1704.77 1806.961
77.5 1995.878 1911.492 1790.302 1885.066
78.75 1957.867 1856.232 1748.492 1834.024
80 1867.353 1789.115 1676.18 1784.163
81.25 1969.255 1949.264 1807.677 1959.614
82.5 2479.961 2530.272 2261.289 2556.827
83.75 3269.725 3318.121 3051.318 3299.839
85 3848.765 3879.777 3553.689 3784.926
86.25 3951.513 3920.856 3618.39 3801.244
87.5 3642.898 3569.738 3265.487 3429.423
88.75 3294.911 3244.933 2929.453 3130.202
90 3300.409 3356.003 3021.969 3174.905
91.25 3520.453 3713.572 3285.922 3364.056
92.5 3725.261 3956.193 3497.983 3527.805
93.75 3800.118 3975.568 3521.706 3566.205
95 3777.628 3861.746 3476.879 3584.538
96.25 3881.781 3887.506 3597.17 3694.796
97.5 4177.808 4115.168 3867.346 3949.044
98.75 4456.032 4337.283 4127.667 4198.036
100 4548.329 4393.385 4215.868 4285.561
101.25 4413.131 4226.952 4102.586 4161.293
102.5 4049.069 3860.513 3748.919 3813.72
103.75 3521.286 3373.082 3268.883 3326.683
105 3020.876 2958.131 2857.983 2879.291
106.25 2674.828 2649.68 2550.634 2550.871
107.5 2450.852 2427.345 2336.099 2325.357
